X(E/m),Y(N/m)
330160.657826488488354,4156673.321863912511617
330160.807574654812925,4156673.296599940862507
330160.947579637402669,4156673.227132818195969
330161.114317811152432,4156673.168219540733844
330161.280602100887336,4156673.087114335969090
330161.455948752816767,4156673.016924392897636
330161.604562220745720,4156672.936180611141026
330161.797806647489779,4156672.876725222915411
330161.999659553170204,4156672.805993170943111
330162.175006216391921,4156672.735803242307156
330162.323846634186339,4156672.666155437938869
330162.516864133533090,4156672.595604104921222
330162.710562456049956,4156672.558340671472251
330162.912415376165882,4156672.487608640454710
330163.087988992396276,4156672.428514696657658
330163.272398024448194,4156672.369240052066743
330163.465188598551322,4156672.287592776119709
330163.658659992623143,4156672.239233399741352
330163.834687495778780,4156672.202331403270364
330164.028385831741616,4156672.165068000089377
330164.221857231284957,4156672.116708638146520
330164.406039339257404,4156672.046338052954525
330164.572777558001690,4156671.987424846738577
330164.766248964180704,4156671.939065495971590
330164.959493435453624,4156671.879610185511410
330165.126685532159172,4156671.842888921964914
330165.302486112108454,4156671.794890990480781
330165.522917647031136,4156671.768181479070336
330165.725224478926975,4156671.719641447532922
330165.909860480518546,4156671.671462827827781
330166.112394251918886,4156671.634018770884722
330166.332371922442690,4156671.585117350798100
330166.516780994890723,4156671.525842780712992
330166.683519234706182,4156671.466929615940899
330166.868382180691697,4156671.429846982937306
330167.070462092931848,4156671.370211021043360
330167.237427273183130,4156671.322393835056573
330167.421609423297923,4156671.252023317385465
330167.614853926468641,4156671.192568070255220
330167.816706915793475,4156671.121836161240935
330167.992280590755399,4156671.062742324080318
330168.150183432153426,4156671.004009892232716
330168.335273325792514,4156670.978023255709559
330168.519909356022254,4156670.929844695609063
330168.686193756235298,4156670.848739644046873
330168.861767442314886,4156670.789645825047046
330169.046857342123985,4156670.763659206684679
330169.231266449321993,4156670.704384697135538
330169.389169305039104,4156670.645652288571000
330169.564969930448569,4156670.597654449753463
330169.749605974939186,4156670.549475916661322
330169.943077438627370,4156670.501116688828915
330170.109588790102862,4156670.431107631418854
330170.285389423370361,4156670.383109809830785
330170.478860893461388,4156670.334750594571233
330170.672105436387938,4156670.275295420084149
330170.838616797816940,4156670.205286376643926
330171.005128164135385,4156670.135277337860316
330171.207661989668850,4156670.097833408508450
330171.392071124748327,4156670.038558947388083
330171.540684732608497,4156669.957815348170698
330171.733929290669039,4156669.898360197898000
330171.918565360945649,4156669.850181714631617
330172.094366012839600,4156669.802183931227773
330172.260877396678552,4156669.732174918521196
330172.427615707798395,4156669.673261871561408
330172.603189441491850,4156669.614168134052306
330172.778990103979595,4156669.566170365549624
330172.928284511144739,4156669.518714687321335
330173.095249758916907,4156669.470897620543838
330173.271050424431451,4156669.422899862285703
330173.447078019496985,4156669.385998071171343
330173.604980928590521,4156669.327265745960176
330173.789843945298344,4156669.290183269418776
330173.965644617914222,4156669.242185526061803
330174.150280713220127,4156669.194007093086839
330174.317245973274112,4156669.146190051455051
330174.492819727340247,4156669.087096355855465
330174.677455828525126,4156669.038917934056371
330174.843967247055843,4156668.968908973038197
330175.010932512639556,4156668.921091945841908
330175.195341696904507,4156668.861817571800202
330175.370915464649443,4156668.802723893430084
330175.528591471840627,4156668.732895639259368
330175.686948251095600,4156668.696355283260345
330175.871357444440946,4156668.637080925051123
330176.064828978967853,4156668.588721842039376
330176.232021181960590,4156668.552000805735588
330176.407821884029545,4156668.504003116395324
330176.583395664463751,4156668.444909464102238
330176.768031789804809,4156668.396731090266258
330176.943605576874688,4156668.337637446820736
330177.119633205118589,4156668.300735736265779
330177.304269336163998,4156668.252557375468314
330177.497740888618864,4156668.204198326449841
330177.673541603959166,4156668.156200663186610
330177.849569240643177,4156668.119298969861120
330178.060711637954228,4156668.070578556042165
330178.245120857260190,4156668.011304249521345
330178.421375417616218,4156667.985498532652855
330178.606238480191678,4156667.948416165541857
330178.808318547264207,4156667.888780494220555
330178.992954693152569,4156667.840602172538638
330179.159693085704930,4156667.781689263414592
330179.326658397912979,4156667.733872326556593
330179.510840717353858,4156667.663502084091306
330179.677579114446416,4156667.604589187540114
330179.844090599159244,4156667.534580330364406
330180.011055917420890,4156667.486763406079262
330180.186856659827754,4156667.438765796832740
330180.353595067746937,4156667.379852915182710
330180.502889550989494,4156667.332397374324501
330180.660792542621493,4156667.273665185552090
330180.818922449601814,4156667.226028963457793
330180.976825445191935,4156667.167296780738980
330181.125893020187505,4156667.108745287172496
330181.302147605514619,4156667.082939631771296
330181.469339854316786,4156667.046218701638281
330181.636305192369036,4156666.998401810415089
330181.794888939824887,4156666.972957538440824
330181.979752033832483,4156666.935875246301293
330182.146717376541346,4156666.888058364856988
330182.313909632095601,4156666.851337454281747
330182.481101891258731,4156666.814616543706506
330182.674800414126366,4156666.777353583835065
330182.859663517796434,4156666.740271312184632
330183.017793445324060,4156666.692635132931173
330183.166634131455794,4156666.622987711802125
330183.333372571796644,4156666.564074891619384
330183.508946437621489,4156666.504981389734894
330183.658014040149283,4156666.446429942268878
330183.815917068102863,4156666.387697815429419
330183.982882430544123,4156666.339880970306695
330184.149847792461514,4156666.292064132168889
330184.325648579746485,4156666.244066612329334
330184.492387037142180,4156666.185153814032674
330184.668187825940549,4156666.137156302575022
330184.843988618988078,4156666.089158793911338
330185.010727082611993,4156666.030246009118855
330185.177692455705255,4156665.982429188676178
330185.353493254398927,4156665.934431692119688
330185.529747870867141,4156665.908626127988100
330185.696940159832593,4156665.871905284933746
330185.872967869625427,4156665.835003762040287
330186.057604096480645,4156665.786825600545853
330186.251529563218355,4156665.760658689308912
330186.427557279414032,4156665.723757178988308
330186.621028933150228,4156665.675398347433656
330186.823336010798812,4156665.626858840696514
330187.016353854560293,4156665.556308089289814
330187.192154668620788,4156665.508310632314533
330187.367728580313269,4156665.449217214714736
330187.551911010057665,4156665.378847155254334
330187.735412724548951,4156665.275189206935465
330187.910532830574084,4156665.193903871811926
330188.103777598007582,4156665.134449111297727
330188.296795462723821,4156665.063898390624672
330188.472596295585390,4156665.015900960657746
330188.639334800711367,4156664.956988248042762
330188.814681828313041,4156664.886798897292465
330188.990028858650476,4156664.816609548404813
330189.147478140075691,4156664.735685597173870
330189.296092001488432,4156664.654942325316370
330189.471665944089182,4156664.595848951023072
330189.646559178654570,4156664.503467688802630
330189.830287840042729,4156664.410905752796680
330189.996799465036020,4156664.340897104702890
330190.163311090436764,4156664.270888459403068
330190.329595818242524,4156664.189783853013068
330190.487045123532880,4156664.108859925996512
330190.644721336080693,4156664.039031967055053
330190.820295297889970,4156663.979938624892384
330190.995188559289090,4156663.887557392008603
330191.170308725908399,4156663.806272126268595
330191.336366568633821,4156663.714071576017886
330191.511486741947010,4156663.632786319591105
330191.669162971316837,4156663.562958379741758
330191.835220824228600,4156663.470757840201259
330192.010341007146053,4156663.389472594950348
330192.185461191053037,4156663.308187352027744
330192.369189905060921,4156663.215625475160778
330192.535020874871407,4156663.112328985705972
330192.701078747864813,4156663.020128464791924
330192.867363521363586,4156662.939023910555989
330193.033421401341911,4156662.846823395229876
330193.182262230431661,4156662.777176159434021
330193.357609338476323,4156662.706986906938255
330193.532502653019037,4156662.614605730865151
330193.698787442059256,4156662.533501194324344
330193.856009913724847,4156662.441481368616223
330194.030903236824088,4156662.349100201390684
330194.206023463164456,4156662.267815004102886
330194.363699736888520,4156662.197987118735909
330194.512767486856319,4156662.139435871504247
330194.687887721927837,4156662.058150683529675
330194.863234854303300,4156661.987961464095861
330195.029519670002628,4156661.906856955494732
330195.195804488961585,4156661.825752449687570
330195.379987055668607,4156661.755382570438087
330195.538117141113617,4156661.707746634725481
330195.687411800259724,4156661.660291374661028
330195.862758950679563,4156661.590102178044617
330196.047395319270436,4156661.541924241930246
330196.222742474987172,4156661.471735052298754
330196.398089631227776,4156661.401545865926892
330196.555992834328208,4156661.342813986819237
330196.749237744137645,4156661.283359432592988
330196.933647227939218,4156661.224085552152246
330197.082715011434630,4156661.165534353815019
330197.285022245603614,4156661.116995107848197
330197.487329486291856,4156661.068455866537988
330197.680801298236474,4156661.020097299013287
330197.839158300950658,4156660.983557373750955
330198.006350731418934,4156660.946836784947664
330198.200276334362570,4156660.920670157764107
330198.341189377126284,4156660.895587543025613
330198.499773273593746,4156660.870143594220281
330198.675801135017537,4156660.833242348860949
330198.869726741977502,4156660.807075739372522
330199.063425459200516,4156660.769813169259578
330199.239453322428744,4156660.732911936473101
330199.415708079352044,4156660.707106672227383
330199.610087470326107,4156660.703132007736713
330199.786569118266925,4156660.688422716688365
330199.963277653791010,4156660.684809392318130
330200.140213080681860,4156660.692292036488652
330200.308313080342487,4156660.699955350253731
330200.485021615226287,4156660.696342037525028
330200.643832410511095,4156660.681994094513357
330200.812159297638573,4156660.700753382872790
330200.989548496203497,4156660.730427972972393
330201.131142213707790,4156660.738633298315108
330201.291087444522418,4156660.779765189625323
330201.450805788452271,4156660.809801119379699
330201.602142476709560,4156660.862209644168615
330201.753706052317284,4156660.925714137032628
330201.931549015163910,4156660.977580677717924
330202.083339470147621,4156661.052181139122695
330202.226067612064071,4156661.115866304375231
330202.368795749440324,4156661.179551471024752
330202.511977656628005,4156661.265428571496159
330202.664448760449886,4156661.373316935729235
330202.790413581009489,4156661.481747294310480
330202.925213826005347,4156661.589996989350766
330203.068849490780849,4156661.698066025972366
330203.194814301037695,4156661.806496389210224
330203.321232878020965,4156661.937118683010340
330203.420918291085400,4156662.057187000755221
330203.556626057368703,4156662.209820564370602
330203.691653162939474,4156662.329166238196194
330203.809236297500320,4156662.459969199728221
330203.917757121962495,4156662.579856861848384
330204.035567138111219,4156662.721755792852491
330204.153377148089930,4156662.863654723856598
330204.270960270368960,4156662.994457693304867
330204.371099424897693,4156663.136717950925231
330204.480300883413292,4156663.289893512614071
330204.580440030898899,4156663.432153771631420
330204.662908328464255,4156663.574775355868042
330204.772109776269644,4156663.727950921282172
330204.863640373921953,4156663.881487809121609
330204.954490317264572,4156664.001736807636917
330205.037412368925288,4156664.166550321504474
330205.128942957380787,4156664.320087214466184
330205.211865002813283,4156664.484900730196387
330205.285951620724518,4156664.649894909467548
330205.359584473073483,4156664.792697160039097
330205.451568814110942,4156664.968425982631743
330205.551934808667284,4156665.121782218106091
330205.643465375876985,4156665.275319114327431
330205.726160520629492,4156665.429036670830101
330205.800020241411403,4156665.582934889942408
330205.882942262396682,4156665.747748412657529
330205.965637398650870,4156665.901465971954167
330206.048559413640760,4156666.066279496997595
330206.122646002797410,4156666.231273683719337
330206.196732591488399,4156666.396267869044095
330206.270365414558910,4156666.539070126600564
330206.344225114386063,4156666.692968349438161
330206.427147114998661,4156666.857781876809895
330206.501233690534718,4156667.022776065859944
330206.566484846116509,4156667.187950913328677
330206.648953076102771,4156667.330572515726089
330206.740710484271403,4156667.495205386541784
330206.805734748952091,4156667.649284272920340
330206.879594432597514,4156667.803182500880212
330206.926720977062359,4156667.946526740677655
330206.991745235281996,4156668.100605627521873
330207.039098656969145,4156668.255045832600445
330207.068554358032998,4156668.398751391097903
330207.116134655079804,4156668.564287560526282
330207.146497875684872,4156668.752376977354288
330207.194305052224081,4156668.929009111598134
330207.232823046797421,4156669.083629976026714
330207.244834788260050,4156669.238792816642672
330207.275198006827850,4156669.426882233936340
330207.269992671965156,4156669.604598319157958
330207.273168996092863,4156669.759941820520908
330207.267963666468859,4156669.937657906208187
330207.262985213310458,4156670.126469957642257
330207.248944466351531,4156670.304366703610867
330207.225614543538541,4156670.460252180229872
330207.202738382678945,4156670.638329584617168
330207.171026805299334,4156670.816587647423148
330207.121644400875084,4156670.995207028463483
330207.072261996741872,4156671.173826411832124
330207.040323546505533,4156671.340988511685282
330207.017447391233873,4156671.519065917935222
330206.976673529366963,4156671.686408676672727
330206.944508202897850,4156671.842474813107401
330206.894898927886970,4156672.009998232126236
330206.819010293576866,4156672.189159594476223
330206.751503316743765,4156672.345948368310928
330206.684223221731372,4156672.513833109289408
330206.617170010984410,4156672.692813812289387
330206.549889924121089,4156672.860698554199189
330206.473774424695875,4156673.028763954062015
330206.405813698831480,4156673.163360802922398
330206.320862792548724,4156673.331606866326183
330206.226622713147663,4156673.477841662708670
330206.123547224560753,4156673.624257116578519
330206.029080267762765,4156673.759395950473845
330205.935293965681922,4156673.927822678349912
330205.823609956423752,4156674.085514763370156
330205.738205309258774,4156674.231568902730942
330205.643738368293270,4156674.366707740817219
330205.531827490020078,4156674.513303866144270
330205.420143499039114,4156674.670995956752449
330205.290334922843613,4156674.806857442017645
330205.186805701465346,4156674.931080982089043
330205.083730250364169,4156675.077496454119682
330204.972046273644082,4156675.235188551712781
330204.860135419527069,4156675.381784685887396
330204.756606212060433,4156675.506008232012391
330204.636086839367636,4156675.663880996406078
330204.515113702509552,4156675.799561833497137
330204.376469746814109,4156675.935603997670114
330204.264332030666992,4156676.071104176342487
330204.152648083632812,4156676.228796286508441
330204.023520208778791,4156676.397945686709136
330203.912063158350065,4156676.566733764950186
330203.782708406215534,4156676.724787204060704
330203.662189072871115,4156676.882659984286875
330203.523772035725415,4156677.029798128642142
330203.403025823645294,4156677.176574947312474
330203.282279615988955,4156677.323351770173758
330203.161760296788998,4156677.481224556453526
330203.041467873263173,4156677.650193311739713
330202.920494790305384,4156677.785874173976481
330202.799294826632831,4156677.910459074657410
330202.669713232666254,4156678.057416569907218
330202.522687712567858,4156678.215831359382719
330202.401714648818597,4156678.351512230001390
330202.281195364310406,4156678.509385033044964
330202.151840674749110,4156678.667438500560820
330202.013650587527081,4156678.825672636274248
330201.901512946118601,4156678.961172850336879
330201.789602198987268,4156679.107769031543285
330201.650958346901461,4156679.243811244145036
330201.512541388219688,4156679.390949423890561
330201.400857540662400,4156679.548641575500369
330201.271729776111897,4156679.717791022267193
330201.160499718447682,4156679.897675106767565
330201.048588997742627,4156680.044271298684180
330200.928069764806423,4156680.202144121285528
330200.807777423935477,4156680.371112911961973
330200.687485090456903,4156680.540081704501063
330200.592791420174763,4156680.664124642033130
330200.481107608298771,4156680.821816806681454
330200.351979883387685,4156680.990966270212084
330200.240749864140525,4156681.170850367750973
330200.137674582540058,4156681.317265907768160
330200.017155386332888,4156681.475138746201992
330199.897089977050200,4156681.655203515198082
330199.775890114833601,4156681.779788463842124
330199.655597824021243,4156681.948757272213697
330199.544140942161903,4156682.117545415647328
330199.415467041078955,4156682.308886826038361
330199.304010169231333,4156682.477674973197281
330199.218832620070316,4156682.634825153276324
330199.107375757070258,4156682.803613304626197
330198.987310388009064,4156682.983678088057786
330198.866791239357553,4156683.141550946515054
330198.763942900695838,4156683.299062468577176
330198.670383751916233,4156683.478585253469646
330198.550318402878474,4156683.658650044817477
330198.482584794750437,4156683.804342933930457
330198.388571874238551,4156683.961673793382943
330198.286177340080030,4156684.141377252060920
330198.165885118418373,4156684.310346086043864
330198.063263702380937,4156684.478953581769019
330197.942744592146482,4156684.636826454196125
330197.849185480037704,4156684.816349250264466
330197.738636253052391,4156685.029521279036999
330197.627406349056400,4156685.209405418951064
330197.533620356465690,4156685.377832253463566
330197.387275755521841,4156685.569535037502646
330197.284881267056335,4156685.749238511547446
330197.173424488399178,4156685.918026690836996
330197.061967714398634,4156686.086814871523529
330196.950510942784604,4156686.255603054072708
330196.856498083798215,4156686.412933933082968
330196.745268216764089,4156686.592818084172904
330196.642419964424334,4156686.750329637434334
330196.548860909184441,4156686.929852450266480
330196.428568763891235,4156687.098821311723441
330196.325720524415374,4156687.256332869641483
330196.231707685044967,4156687.413663756567985
330196.129313246463425,4156687.593367245048285
330196.035981109365821,4156687.783986030612141
330195.959412183263339,4156687.929859614465386
330195.847955460776575,4156688.098647814244032
330195.754623336601071,4156688.289266602601856
330195.652002023067325,4156688.457874134648591
330195.549380713899154,4156688.626481666695327
330195.463976407889277,4156688.772535928525031
